omega eigenvalue_approx
0.01 1.04109
0.011 1.03996
0.012 1.03918
0.013 1.03841
0.014 1.0383
0.015 1.03819
0.016 1.03809
0.017 1.038
0.018 1.03723
0.019 1.03647
0.02 1.03572
0.021 1.03498
0.022 1.03457
0.023 1.03416
0.024 1.03164
0.025 1.02987
0.026 1.02845
0.027 1.02733
0.028 1.02648
0.029 1.02566
0.03 1.02507
0.031 1.02449
0.032 1.02392
0.033 1.02357
0.034 1.02322
0.035 1.02288
0.036 1.02254
0.037 1.02221
0.038 1.02188
0.039 1.02176
0.04 1.02143
0.041 1.02132
0.042 1.02101
0.043 1.0209
0.044 1.02059
0.045 1.0205
0.046 1.01998
0.047 1.01968
0.048 1.01939
0.049 1.01909
0.05 1.01881
0.051 1.01852
0.052 1.01824
0.053 1.01757
0.054 1.0171
0.055 1.01646
0.056 1.01602
0.057 1.01558
0.058 1.01533
0.059 1.0149
0.06 1.01449
0.061 1.01425
0.062 1.01401
0.063 1.01361
0.064 1.01338
0.065 1.01315
0.066 1.01292
0.067 1.0127
0.068 1.01248
0.069 1.01226
0.07 1.01205
0.071 1.01184
0.072 1.01163
0.073 1.01142
0.074 1.01122
0.075 1.01102
0.076 1.01097
0.077 1.01077
0.078 1.01057
0.079 1.01038
0.08 1.01034
0.081 1.01015
0.082 1.00996
0.083 1.00978
0.084 1.00959
0.085 1.00941
0.086 1.00924
0.087 1.00906
0.088 1.00889
0.089 1.00872
0.09 1.00855
0.091 1.00838
0.092 1.00808
0.093 1.00792
0.094 1.00763
0.095 1.00735
0.096 1.0072
0.097 1.00692
0.098 1.00677
0.099 1.00651
0.1 1.00636
0.101 1.00622
0.102 1.00597
0.103 1.00583
0.104 1.00569
0.105 1.00545
0.106 1.00531
0.107 1.00518
0.108 1.00505
0.109 1.00482
0.11 1.00469
0.111 1.00457
0.112 1.00444
0.113 1.00432
0.114 1.0042
0.115 1.00408
0.116 1.00396
0.117 1.00384
0.118 1.00373
0.119 1.00352
0.12 1.00341
0.121 1.00321
0.122 1.0031
0.123 1.00291
0.124 1.0028
0.125 1.00262
0.126 1.00236
0.127 1.00218
0.128 1.00193
0.129 1.00177
0.13 1.0016
0.131 1.00144
0.132 1.00129
0.133 1.00114
0.134 1.00099
0.135 1.00072
0.136 1.00053
0.137 1.00034
0.138 1.00006
0.139 0.999794
0.14 0.999466
0.141 0.999241
0.142 0.998996
0.143 0.998801
0.144 0.998617
0.145 0.998472
0.146 0.998333
0.147 0.998201
0.148 0.998097
0.149 0.997997
0.15 0.997921
0.151 0.997826
0.152 0.997754
0.153 0.997683
0.154 0.997594
0.155 0.997526
0.156 0.99746
0.157 0.997394
0.158 0.997346
0.159 0.997282
0.16 0.99722
0.161 0.997174
0.162 0.997113
0.163 0.997053
0.164 0.997008
0.165 0.996963
0.166 0.996906
0.167 0.996862
0.168 0.996806
0.169 0.996763
0.17 0.99672
0.171 0.996678
0.172 0.996624
0.173 0.996583
0.174 0.996541
0.175 0.996501
0.176 0.99646
0.177 0.996419
0.178 0.996379
0.179 0.996339
0.18 0.9963
0.181 0.99626
0.182 0.996221
0.183 0.996182
0.184 0.996143
0.185 0.996105
0.186 0.996066
0.187 0.996028
0.188 0.99599
0.189 0.995952
0.19 0.995915
0.191 0.995877
0.192 0.99584
0.193 0.995812
0.194 0.995775
0.195 0.995738
0.196 0.995701
0.197 0.995665
0.198 0.995629
0.199 0.9956
0.2 0.995564
0.201 0.995528
0.202 0.995492
0.203 0.995457
0.204 0.995429
0.205 0.995393
0.206 0.995358
0.207 0.995323
0.208 0.995294
0.209 0.995259
0.21 0.995224
0.211 0.995196
0.212 0.995162
0.213 0.995127
0.214 0.995092
0.215 0.995064
0.216 0.99503
0.217 0.994996
0.218 0.994968
0.219 0.994933
0.22 0.994899
0.221 0.994871
0.222 0.994837
0.223 0.994803
0.224 0.99477
0.225 0.994742
0.226 0.994708
0.227 0.994674
0.228 0.994646
0.229 0.994613
0.23 0.994579
0.231 0.994551
0.232 0.994518
0.233 0.994485
0.234 0.994457
0.235 0.994423
0.236 0.994395
0.237 0.994362
0.238 0.994329
0.239 0.994301
0.24 0.994268
0.241 0.994235
0.242 0.994207
0.243 0.994174
0.244 0.994141
0.245 0.994113
0.246 0.99408
0.247 0.994047
0.248 0.994019
0.249 0.993987
0.25 0.993958
0.251 0.993926
0.252 0.993893
0.253 0.993865
0.254 0.993832
0.255 0.9938
0.256 0.993771
0.257 0.993739
0.258 0.99371
0.259 0.993678
0.26 0.993645
0.261 0.993617
0.262 0.993585
0.263 0.993552
0.264 0.993524
0.265 0.993491
0.266 0.993463
0.267 0.99343
0.268 0.993398
0.269 0.993369
0.27 0.993337
0.271 0.993305
0.272 0.993276
0.273 0.993244
0.274 0.993215
0.275 0.993183
0.276 0.99315
0.277 0.993122
0.278 0.993089
0.279 0.993057
0.28 0.993028
0.281 0.992996
0.282 0.992967
0.283 0.992935
0.284 0.992903
0.285 0.992874
0.286 0.992841
0.287 0.992809
0.288 0.99278
0.289 0.992748
0.29 0.992718
0.291 0.992686
0.292 0.992654
0.293 0.992625
0.294 0.992592
0.295 0.99256
0.296 0.992531
0.297 0.992498
0.298 0.992469
0.299 0.992437
0.3 0.992404
0.301 0.992375
0.302 0.992342
0.303 0.99231
0.304 0.992281
0.305 0.992248
0.306 0.992219
0.307 0.992186
0.308 0.992154
0.309 0.992124
0.31 0.992092
0.311 0.992059
0.312 0.992029
0.313 0.991997
0.314 0.991967
0.315 0.991934
0.316 0.991902
0.317 0.991872
0.318 0.991839
0.319 0.991807
0.32 0.991777
0.321 0.991744
0.322 0.991711
0.323 0.991681
0.324 0.991649
0.325 0.991618
0.326 0.991586
0.327 0.991553
0.328 0.991522
0.329 0.99149
0.33 0.991457
0.331 0.991426
0.332 0.991394
0.333 0.991361
0.334 0.99133
0.335 0.991297
0.336 0.991265
0.337 0.991234
0.338 0.991201
0.339 0.991168
0.34 0.991137
0.341 0.991104
0.342 0.991073
0.343 0.99104
0.344 0.991007
0.345 0.990976
0.346 0.990943
0.347 0.99091
0.348 0.990879
0.349 0.990846
0.35 0.990813
0.351 0.990781
0.352 0.990748
0.353 0.990715
0.354 0.990683
0.355 0.99065
0.356 0.990617
0.357 0.990585
0.358 0.990552
0.359 0.990519
0.36 0.990487
0.361 0.990453
0.362 0.99042
0.363 0.990388
0.364 0.990355
0.365 0.990321
0.366 0.990289
0.367 0.990256
0.368 0.990222
0.369 0.99019
0.37 0.990156
0.371 0.990123
0.372 0.99009
0.373 0.990057
0.374 0.990023
0.375 0.989991
0.376 0.989957
0.377 0.989923
0.378 0.98989
0.379 0.989857
0.38 0.989823
0.381 0.98979
0.382 0.989756
0.383 0.989722
0.384 0.989689
0.385 0.989655
0.386 0.989621
0.387 0.989588
0.388 0.989554
0.389 0.98952
0.39 0.989487
0.391 0.989452
0.392 0.989418
0.393 0.989385
0.394 0.989351
0.395 0.989316
0.396 0.989283
0.397 0.989249
0.398 0.989214
0.399 0.989179
0.4 0.989146
0.401 0.989111
0.402 0.989077
0.403 0.989043
0.404 0.989008
0.405 0.988974
0.406 0.98894
0.407 0.988905
0.408 0.98887
0.409 0.988837
0.41 0.988802
0.411 0.988767
0.412 0.988733
0.413 0.988698
0.414 0.988663
0.415 0.988627
0.416 0.988593
0.417 0.988558
0.418 0.988523
0.419 0.988489
0.42 0.988453
0.421 0.988418
0.422 0.988384
0.423 0.988348
0.424 0.988313
0.425 0.988277
0.426 0.988243
0.427 0.988207
0.428 0.988172
0.429 0.988137
0.43 0.988101
0.431 0.988065
0.432 0.98803
0.433 0.987995
0.434 0.987959
0.435 0.987923
0.436 0.987888
0.437 0.987852
0.438 0.987816
0.439 0.987781
0.44 0.987745
0.441 0.987709
0.442 0.987673
0.443 0.987637
0.444 0.987601
0.445 0.987565
0.446 0.987529
0.447 0.987493
0.448 0.987456
0.449 0.98742
0.45 0.987384
0.451 0.987348
0.452 0.987311
0.453 0.987275
0.454 0.987239
0.455 0.987202
0.456 0.987165
0.457 0.987129
0.458 0.987092
0.459 0.987056
0.46 0.987019
0.461 0.986982
0.462 0.986945
0.463 0.986908
0.464 0.986872
0.465 0.986835
0.466 0.986798
0.467 0.986761
0.468 0.986724
0.469 0.986687
0.47 0.986649
0.471 0.986612
0.472 0.986575
0.473 0.986538
0.474 0.9865
0.475 0.986463
0.476 0.986426
0.477 0.986388
0.478 0.98635
0.479 0.986313
0.48 0.986275
0.481 0.986238
0.482 0.9862
0.483 0.986162
0.484 0.986124
0.485 0.986086
0.486 0.986048
0.487 0.986011
0.488 0.985973
0.489 0.985934
0.49 0.985896
0.491 0.985858
0.492 0.98582
0.493 0.985782
0.494 0.985743
0.495 0.985705
0.496 0.985667
0.497 0.985628
0.498 0.98559
0.499 0.985551
0.5 0.985513
0.501 0.985474
0.502 0.985435
0.503 0.985397
0.504 0.985358
0.505 0.985319
0.506 0.98528
0.507 0.985241
0.508 0.985202
0.509 0.985163
0.51 0.985124
0.511 0.985085
0.512 0.985046
0.513 0.985007
0.514 0.984967
0.515 0.984928
0.516 0.984889
0.517 0.984849
0.518 0.98481
0.519 0.98477
0.52 0.984731
0.521 0.984691
0.522 0.984651
0.523 0.984612
0.524 0.984572
0.525 0.984532
0.526 0.984492
0.527 0.984452
0.528 0.984412
0.529 0.984372
0.53 0.984332
0.531 0.984292
0.532 0.984251
0.533 0.984211
0.534 0.984171
0.535 0.98413
0.536 0.98409
0.537 0.984049
0.538 0.984009
0.539 0.983968
0.54 0.983928
0.541 0.983887
0.542 0.983846
0.543 0.983805
0.544 0.983765
0.545 0.983724
0.546 0.983683
0.547 0.983642
0.548 0.983601
0.549 0.983559
0.55 0.983518
0.551 0.983477
0.552 0.983436
0.553 0.983394
0.554 0.983353
0.555 0.983311
0.556 0.98327
0.557 0.983228
0.558 0.983187
0.559 0.983145
0.56 0.983103
0.561 0.983061
0.562 0.983019
0.563 0.982978
0.564 0.982936
0.565 0.982894
0.566 0.982851
0.567 0.982809
0.568 0.982767
0.569 0.982725
0.57 0.982682
0.571 0.98264
0.572 0.982598
0.573 0.982555
0.574 0.982513
0.575 0.98247
0.576 0.982427
0.577 0.982385
0.578 0.982342
0.579 0.982299
0.58 0.982256
0.581 0.982213
0.582 0.98217
0.583 0.982127
0.584 0.982084
0.585 0.982041
0.586 0.981997
0.587 0.981954
0.588 0.981911
0.589 0.981867
0.59 0.981824
0.591 0.98178
0.592 0.981737
0.593 0.981693
0.594 0.981649
0.595 0.981605
0.596 0.981561
0.597 0.981518
0.598 0.981473
0.599 0.981429
0.6 0.981385
0.601 0.981341
0.602 0.981297
0.603 0.981253
0.604 0.981208
0.605 0.981164
0.606 0.981119
0.607 0.981075
0.608 0.98103
0.609 0.980986
0.61 0.980941
0.611 0.980896
0.612 0.980851
0.613 0.980806
0.614 0.980761
0.615 0.980716
0.616 0.980671
0.617 0.980626
0.618 0.980581
0.619 0.980535
0.62 0.98049
0.621 0.980445
0.622 0.980399
0.623 0.980353
0.624 0.980308
0.625 0.980262
0.626 0.980216
0.627 0.980171
0.628 0.980124
0.629 0.980079
0.63 0.980033
0.631 0.979987
0.632 0.979941
0.633 0.979894
0.634 0.979848
0.635 0.979802
0.636 0.979755
0.637 0.979709
0.638 0.979662
0.639 0.979615
0.64 0.979569
0.641 0.979522
0.642 0.979475
0.643 0.979428
0.644 0.979381
0.645 0.979334
0.646 0.979287
0.647 0.97924
0.648 0.979193
0.649 0.979145
0.65 0.979098
0.651 0.979051
0.652 0.979003
0.653 0.978956
0.654 0.978908
0.655 0.97886
0.656 0.978812
0.657 0.978765
0.658 0.978717
0.659 0.978668
0.66 0.97862
0.661 0.978572
0.662 0.978524
0.663 0.978476
0.664 0.978428
0.665 0.978379
0.666 0.97833
0.667 0.978282
0.668 0.978233
0.669 0.978185
0.67 0.978136
0.671 0.978087
0.672 0.978038
0.673 0.977989
0.674 0.97794
0.675 0.97789
0.676 0.977841
0.677 0.977792
0.678 0.977743
0.679 0.977694
0.68 0.977644
0.681 0.977594
0.682 0.977544
0.683 0.977495
0.684 0.977445
0.685 0.977395
0.686 0.977346
0.687 0.977295
0.688 0.977245
0.689 0.977195
0.69 0.977145
0.691 0.977095
0.692 0.977043
0.693 0.976993
0.694 0.976943
0.695 0.976892
0.696 0.976842
0.697 0.976791
0.698 0.976739
0.699 0.976688
0.7 0.976638
0.701 0.976587
0.702 0.976536
0.703 0.976484
0.704 0.976432
0.705 0.976381
0.706 0.97633
0.707 0.976278
0.708 0.976227
0.709 0.976174
0.71 0.976123
0.711 0.976071
0.712 0.976019
0.713 0.975967
0.714 0.975915
0.715 0.975862
0.716 0.97581
0.717 0.975758
0.718 0.975706
0.719 0.975653
0.72 0.975601
0.721 0.975547
0.722 0.975494
0.723 0.975442
0.724 0.975389
0.725 0.975336
0.726 0.975283
0.727 0.975229
0.728 0.975176
0.729 0.975123
0.73 0.97507
0.731 0.975016
0.732 0.974963
0.733 0.974908
0.734 0.974855
0.735 0.974801
0.736 0.974747
0.737 0.974693
0.738 0.974639
0.739 0.974584
0.74 0.97453
0.741 0.974476
0.742 0.974421
0.743 0.974367
0.744 0.974313
0.745 0.974257
0.746 0.974202
0.747 0.974148
0.748 0.974093
0.749 0.974038
0.75 0.973983
0.751 0.973928
0.752 0.973872
0.753 0.973816
0.754 0.973761
0.755 0.973706
0.756 0.97365
0.757 0.973595
0.758 0.973538
0.759 0.973482
0.76 0.973426
0.761 0.97337
0.762 0.973314
0.763 0.973258
0.764 0.9732
0.765 0.973144
0.766 0.973088
0.767 0.973031
0.768 0.972975
0.769 0.972918
0.77 0.972861
0.771 0.972803
0.772 0.972746
0.773 0.972689
0.774 0.972632
0.775 0.972575
0.776 0.972517
0.777 0.972459
0.778 0.972401
0.779 0.972344
0.78 0.972286
0.781 0.972228
0.782 0.97217
0.783 0.972112
0.784 0.972053
0.785 0.971995
0.786 0.971936
0.787 0.971878
0.788 0.97182
0.789 0.971761
0.79 0.971701
0.791 0.971642
0.792 0.971584
0.793 0.971525
0.794 0.971466
0.795 0.971406
0.796 0.971347
0.797 0.971286
0.798 0.971227
0.799 0.971168
0.8 0.971108
0.801 0.971048
0.802 0.970988
0.803 0.970929
0.804 0.970867
0.805 0.970807
0.806 0.970747
0.807 0.970686
0.808 0.970626
0.809 0.970565
0.81 0.970503
0.811 0.970443
0.812 0.970382
0.813 0.970321
0.814 0.97026
0.815 0.970199
0.816 0.970137
0.817 0.970075
0.818 0.970013
0.819 0.969952
0.82 0.96989
0.821 0.969828
0.822 0.969766
0.823 0.969704
0.824 0.969641
0.825 0.969579
0.826 0.969516
0.827 0.969454
0.828 0.969391
0.829 0.969329
0.83 0.969266
0.831 0.969202
0.832 0.969139
0.833 0.969076
0.834 0.969013
0.835 0.968949
0.836 0.968886
0.837 0.968823
0.838 0.968757
0.839 0.968694
0.84 0.96863
0.841 0.968566
0.842 0.968502
0.843 0.968438
0.844 0.968374
0.845 0.968307
0.846 0.968243
0.847 0.968178
0.848 0.968114
0.849 0.968049
0.85 0.967984
0.851 0.967919
0.852 0.967852
0.853 0.967787
0.854 0.967722
0.855 0.967656
0.856 0.967591
0.857 0.967525
0.858 0.967459
0.859 0.967393
0.86 0.967325
0.861 0.967259
0.862 0.967193
0.863 0.967126
0.864 0.96706
0.865 0.966993
0.866 0.966927
0.867 0.966858
0.868 0.966791
0.869 0.966724
0.87 0.966657
0.871 0.966589
0.872 0.966522
0.873 0.966454
0.874 0.966387
0.875 0.966317
0.876 0.966249
0.877 0.966181
0.878 0.966113
0.879 0.966044
0.88 0.965976
0.881 0.965907
0.882 0.965836
0.883 0.965768
0.884 0.965699
0.885 0.96563
0.886 0.965561
0.887 0.965491
0.888 0.965422
0.889 0.965352
0.89 0.965281
0.891 0.965211
0.892 0.965141
0.893 0.965071
0.894 0.965001
0.895 0.96493
0.896 0.96486
0.897 0.964787
0.898 0.964717
0.899 0.964646
0.9 0.964575
0.901 0.964504
0.902 0.964433
0.903 0.964361
0.904 0.96429
0.905 0.964216
0.906 0.964144
0.907 0.964072
0.908 0.964
0.909 0.963928
0.91 0.963856
0.911 0.963784
0.912 0.963711
0.913 0.963636
0.914 0.963563
0.915 0.96349
0.916 0.963417
0.917 0.963344
0.918 0.963271
0.919 0.963197
0.92 0.963124
0.921 0.963047
0.922 0.962974
0.923 0.9629
0.924 0.962825
0.925 0.962751
0.926 0.962677
0.927 0.962602
0.928 0.962527
0.929 0.96245
0.93 0.962375
0.931 0.9623
0.932 0.962225
0.933 0.962149
0.934 0.962074
0.935 0.961998
0.936 0.961922
0.937 0.961843
0.938 0.961767
0.939 0.961691
0.94 0.961615
0.941 0.961538
0.942 0.961461
0.943 0.961384
0.944 0.961307
0.945 0.961228
0.946 0.96115
0.947 0.961073
0.948 0.960995
0.949 0.960917
0.95 0.960839
0.951 0.960761
0.952 0.960683
0.953 0.960602
0.954 0.960524
0.955 0.960445
0.956 0.960366
0.957 0.960287
0.958 0.960208
0.959 0.960129
0.96 0.960049
0.961 0.959967
0.962 0.959887
0.963 0.959807
0.964 0.959727
0.965 0.959647
0.966 0.959566
0.967 0.959486
0.968 0.959405
0.969 0.959324
0.97 0.95924
0.971 0.959159
0.972 0.959078
0.973 0.958996
0.974 0.958915
0.975 0.958833
0.976 0.958751
0.977 0.958669
0.978 0.958584
0.979 0.958501
0.98 0.958418
0.981 0.958336
0.982 0.958253
0.983 0.95817
0.984 0.958086
0.985 0.958003
0.986 0.957919
0.987 0.957832
0.988 0.957748
0.989 0.957664
0.99 0.95758
0.991 0.957495
0.992 0.957411
0.993 0.957326
0.994 0.957241
0.995 0.957156
0.996 0.957067
0.997 0.956982
0.998 0.956896
0.999 0.95681
1 0.956724
1.001 0.956638
1.002 0.956552
1.003 0.956465
1.004 0.956375
1.005 0.956288
1.006 0.956201
1.007 0.956114
1.008 0.956026
1.009 0.955939
1.01 0.955851
1.011 0.955763
1.012 0.955675
1.013 0.955583
1.014 0.955494
1.015 0.955405
1.016 0.955317
1.017 0.955227
1.018 0.955138
1.019 0.955049
1.02 0.954959
1.021 0.954869
1.022 0.954776
1.023 0.954685
1.024 0.954595
1.025 0.954504
1.026 0.954414
1.027 0.954323
1.028 0.954231
1.029 0.95414
1.03 0.954048
1.031 0.953953
1.032 0.953861
1.033 0.953769
1.034 0.953677
1.035 0.953584
1.036 0.953491
1.037 0.953398
1.038 0.953305
1.039 0.953212
1.04 0.953115
1.041 0.953021
1.042 0.952927
1.043 0.952833
1.044 0.952739
1.045 0.952644
1.046 0.952549
1.047 0.952454
1.048 0.952359
1.049 0.95226
1.05 0.952164
1.051 0.952069
1.052 0.951973
1.053 0.951876
1.054 0.95178
1.055 0.951683
1.056 0.951587
1.057 0.95149
1.058 0.951392
1.059 0.951291
1.06 0.951193
1.061 0.951095
1.062 0.950997
1.063 0.950899
1.064 0.9508
1.065 0.950702
1.066 0.950603
1.067 0.950503
1.068 0.9504
1.069 0.9503
1.07 0.9502
1.071 0.9501
1.072 0.95
1.073 0.949899
1.074 0.949799
1.075 0.949698
1.076 0.949596
1.077 0.949491
1.078 0.949389
1.079 0.949287
1.08 0.949185
1.081 0.949083
1.082 0.94898
1.083 0.948877
1.084 0.948774
1.085 0.948671
1.086 0.948568
1.087 0.94846
1.088 0.948356
1.089 0.948251
1.09 0.948147
1.091 0.948042
1.092 0.947937
1.093 0.947832
1.094 0.947727
1.095 0.947621
1.096 0.947515
1.097 0.947404
1.098 0.947298
1.099 0.947191
1.1 0.947084
1.101 0.946977
1.102 0.94687
1.103 0.946762
1.104 0.946654
1.105 0.946546
1.106 0.946438
1.107 0.946325
1.108 0.946216
1.109 0.946107
1.11 0.945997
1.111 0.945887
1.112 0.945777
1.113 0.945667
1.114 0.945557
1.115 0.945446
1.116 0.945331
1.117 0.945219
1.118 0.945108
1.119 0.944996
1.12 0.944884
1.121 0.944772
1.122 0.944659
1.123 0.944546
1.124 0.944433
1.125 0.94432
1.126 0.944201
1.127 0.944087
1.128 0.943973
1.129 0.943859
1.13 0.943744
1.131 0.943629
1.132 0.943514
1.133 0.943398
1.134 0.943282
1.135 0.943166
1.136 0.943045
1.137 0.942928
1.138 0.942811
1.139 0.942694
1.14 0.942576
1.141 0.942458
1.142 0.94234
1.143 0.942221
1.144 0.942103
1.145 0.941984
1.146 0.941864
1.147 0.94174
1.148 0.94162
1.149 0.9415
1.15 0.941379
1.151 0.941258
1.152 0.941137
1.153 0.941016
1.154 0.940894
1.155 0.940772
1.156 0.940649
1.157 0.940522
1.158 0.940399
1.159 0.940276
1.16 0.940152
1.161 0.940028
1.162 0.939904
1.163 0.939779
1.164 0.939655
1.165 0.939529
1.166 0.939404
1.167 0.939273
1.168 0.939147
1.169 0.93902
1.17 0.938894
1.171 0.938766
1.172 0.938639
1.173 0.938511
1.174 0.938383
1.175 0.938255
1.176 0.938126
1.177 0.937997
1.178 0.937862
1.179 0.937732
1.18 0.937602
1.181 0.937472
1.182 0.937341
1.183 0.93721
1.184 0.937079
1.185 0.936947
1.186 0.936815
1.187 0.936682
1.188 0.936544
1.189 0.936411
1.19 0.936277
1.191 0.936143
1.192 0.936009
1.193 0.935874
1.194 0.935739
1.195 0.935604
1.196 0.935468
1.197 0.935332
1.198 0.935196
1.199 0.935054
1.2 0.934916
1.201 0.934779
1.202 0.934641
1.203 0.934503
1.204 0.934364
1.205 0.934225
1.206 0.934086
1.207 0.933946
1.208 0.933806
1.209 0.933665
1.21 0.933519
1.211 0.933377
1.212 0.933236
1.213 0.933094
1.214 0.932951
1.215 0.932808
1.216 0.932665
1.217 0.932521
1.218 0.932377
1.219 0.932233
1.22 0.932088
1.221 0.931937
1.222 0.931791
1.223 0.931645
1.224 0.931499
1.225 0.931352
1.226 0.931205
1.227 0.931057
1.228 0.930909
1.229 0.93076
1.23 0.930611
1.231 0.930456
1.232 0.930306
1.233 0.930156
1.234 0.930005
1.235 0.929854
1.236 0.929702
1.237 0.92955
1.238 0.929398
1.239 0.929245
1.24 0.929092
1.241 0.928938
1.242 0.928784
1.243 0.928623
1.244 0.928468
1.245 0.928313
1.246 0.928157
1.247 0.928
1.248 0.927843
1.249 0.927686
1.25 0.927528
1.251 0.92737
1.252 0.927211
1.253 0.927052
1.254 0.926886
1.255 0.926726
1.256 0.926566
1.257 0.926404
1.258 0.926243
1.259 0.926081
1.26 0.925918
1.261 0.925755
1.262 0.925592
1.263 0.925428
1.264 0.925263
1.265 0.925092
1.266 0.924926
1.267 0.92476
1.268 0.924594
1.269 0.924427
1.27 0.92426
1.271 0.924091
1.272 0.923923
1.273 0.923754
1.274 0.923584
1.275 0.923414
1.276 0.923237
1.277 0.923066
1.278 0.922894
1.279 0.922722
1.28 0.92255
1.281 0.922376
1.282 0.922202
1.283 0.922028
1.284 0.921853
1.285 0.921678
1.286 0.921502
1.287 0.921325
1.288 0.921142
1.289 0.920964
1.29 0.920786
1.291 0.920607
1.292 0.920428
1.293 0.920248
1.294 0.920067
1.295 0.919886
1.296 0.919704
1.297 0.919522
1.298 0.919339
1.299 0.919149
1.3 0.918965
1.301 0.918781
1.302 0.918595
1.303 0.91841
1.304 0.918223
1.305 0.918036
1.306 0.917849
1.307 0.91766
1.308 0.917471
1.309 0.917282
1.31 0.917092
1.311 0.916894
1.312 0.916703
1.313 0.916511
1.314 0.916318
1.315 0.916125
1.316 0.915931
1.317 0.915736
1.318 0.915541
1.319 0.915345
1.32 0.915149
1.321 0.914951
1.322 0.914753
1.323 0.914548
1.324 0.914349
1.325 0.914149
1.326 0.913948
1.327 0.913747
1.328 0.913545
1.329 0.913343
1.33 0.913139
1.331 0.912935
1.332 0.91273
1.333 0.912525
1.334 0.912318
1.335 0.912105
1.336 0.911897
1.337 0.911689
1.338 0.91148
1.339 0.91127
1.34 0.911059
1.341 0.910848
1.342 0.910636
1.343 0.910423
1.344 0.910209
1.345 0.909995
1.346 0.90978
1.347 0.909557
1.348 0.90934
1.349 0.909123
1.35 0.908905
1.351 0.908686
1.352 0.908466
1.353 0.908245
1.354 0.908024
1.355 0.907802
1.356 0.907578
1.357 0.907354
1.358 0.90713
1.359 0.906898
1.36 0.906671
1.361 0.906444
1.362 0.906216
1.363 0.905987
1.364 0.905757
1.365 0.905527
1.366 0.905295
1.367 0.905063
1.368 0.904829
1.369 0.904595
